VDC [V],V(R2) [V],I(R2) [mA],V(R3) [V],I(R3) [mA]
0.0,0.0,0.0,0.0,0.0
0.5,0.2,0.2,0.22,0.22
1.0,0.4,0.4,0.481,0.47
1.5,0.6,0.6,0.68,0.68
2.0,0.8,0.8,0.899,0.9
2.5,1.02,1.1,1.108,1.14
3.0,1.22,1.3,1.346,1.37
3.5,1.5,1.4,1.567,1.58
4.0,1.7,1.5,1.808,1.76
4.5,1.98,1.9,2.01,2.03
5.0,2.2,2.0,2.258,2.25
5.5,2.36,2.3,2.454,2.48
6.0,2.6,2.5,2.714,2.7
6.5,2.8,2.7,2.905,2.93
7.0,3.0,3.0,3.145,3.18
7.5,3.2,3.2,3.364,3.4
8.0,3.42,3.5,3.526,3.61
